Te(K),D*N(1/m-s)
1547.2690790104266,3.649e+25
1590.5926132227185,3.705e+25
1635.4634165140208,3.756e+25
1681.1078543448284,3.802e+25
1729.0731957941516,3.842e+25
1777.8121717829802,3.876e+25
1827.3247823113138,3.902e+25
1879.158296458163,3.921e+25
1931.7654451445176,3.931e+25
1985.9198629098823,3.933e+25
2041.621549754258,3.926e+25
2099.6441402171486,3.91e+25
2158.440365219545,3.886e+25
2218.783859300952,3.853e+25
2281.448257000874,3.814e+25
2345.659923779807,3.769e+25
2412.192494177255,3.718e+25
2479.4986991142086,3.663e+25
2549.1258076696777,3.603e+25
2621.0738198436625,3.542e+25
2695.3427356361626,3.48e+25
2771.158920507674,3.413e+25
2848.5223744581954,3.349e+25
2928.9803665667373,3.282e+25
3010.98562775429,3.216e+25
3096.0854270998634,3.15e+25
3183.5061300639522,3.084e+25
3272.4741021070517,3.019e+25
3364.536612308172,2.957e+25
3459.6936606673135,2.893e+25
3557.1716126449705,2.831e+25
3656.970468241143,2.772e+25
3759.8638619953367,2.711e+25
3865.8517939075505,2.654e+25
3974.160629438281,2.598e+25
4086.3376376665365,2.542e+25
4200.835549513308,2.49e+25
4319.201634057606,2.436e+25
4440.662256759924,2.386e+25
4565.9910521597685,2.335e+25
4694.414385717634,2.288e+25
4825.93225743352,2.239e+25
4962.091936386438,2.195e+25
5101.346153497376,2.149e+25
5245.242177845346,2.107e+25
5393.006374890842,2.064e+25
5544.638744633863,2.023e+25
5700.139287074411,1.986e+25
5861.055271291496,1.948e+25
6025.839428206106,1.908e+25
6195.265392357747,1.872e+25
6369.333163746422,1.841e+25
6548.81637691163,1.806e+25
6732.94139731387,1.77e+25
6922.481859492648,1.741e+25
7117.437763447962,1.709e+25
7317.8091091798115,1.679e+25
7523.595896688199,1.652e+25
7734.798125973121,1.625e+25
7952.9630661135925,1.596e+25
8177.317082570104,1.569e+25
8409.407444421668,1.545e+25
8641.497806273232,1.523e+25
8889.0608589149,1.497e+25
9136.623911556568,1.472e+25
9391.923309593289,1.45e+25
9654.95905302506,1.43e+25
9925.731141851886,1.41e+25
10211.975921468815,1.389e+25
10498.220701085744,1.368e+25
10792.201826097726,1.348e+25
11093.919296504757,1.33e+25
11403.373112306843,1.312e+25
11728.299618899033,1.296e+25
12060.962470886274,1.278e+25
12393.625322873517,1.261e+25
12741.760865650864,1.244e+25
13105.369099218313,1.228e+25
13468.977332785764,1.213e+25
13848.058257143317,1.197e+25
14242.611872290976,1.182e+25
14644.901832833688,1.167e+25
15054.928138771449,1.153e+25
15480.427135499316,1.138e+25
15913.662477622236,1.124e+25
16362.370510535262,1.11e+25
16818.814888843335,1.097e+25
17290.731957941516,1.083e+25
17778.1217178298,1.069e+25
18280.98416850819,1.057e+25
18791.58296458163,1.044e+25
19325.39079684023,1.03e+25
19866.934974493877,1.017e+25
20423.95184293763,1.004e+25
21004.177747566537,9.916e+24
21592.1399975905,9.78e+24
22203.31128379962,9.651e+24
22822.21891540379,9.521e+24
23464.335583193115,9.393e+24
24129.661287167604,9.265e+24
24802.723336537136,9.137e+24
25506.73076748688,9.01e+24
26218.474543831675,8.883e+24
26961.16370175668,8.757e+24
27719.325550471793,8.632e+24
28500.696435372054,8.507e+24
29297.540011062425,8.385e+24
30125.328968333004,8.263e+24
30968.59061639369,8.143e+24
31842.797646034574,8.026e+24
32740.213711860626,7.91e+24
33660.83881387183,7.799e+24
34604.672952068184,7.69e+24
35579.45247184476,7.586e+24
36577.44102780648,7.489e+24
37606.37496534841,7.401e+24
38666.25428447056,7.328e+24
39757.07898517291,7.279e+24
40871.11272206042,7.239e+24
42023.82818592319,7.171e+24
43207.48903136616,7.094e+24
44422.095258389345,7.019e+24
45675.38321238779,6.949e+24
46959.61654796645,6.887e+24
48282.53161052036,6.832e+24
49636.39205465449,6.784e+24
51028.934225763864,6.743e+24
52467.89446924357,6.707e+24
53945.53643969852,6.677e+24
55461.86013712873,6.652e+24
57024.601906929274,6.631e+24
58626.02540370507,6.615e+24
60273.86697285117,6.605e+24
61975.86295976263,6.6e+24
63716.54067364937,6.6e+24
65511.37280530146,6.605e+24
67352.62300932386,6.614e+24
69248.02763111163,6.628e+24
71189.85032526973,6.644e+24
73193.56378258823,6.665e+24
75259.16800306714,6.692e+24
77363.45395052133,6.723e+24
79529.63066113592,6.76e+24
81773.17082570105,6.802e+24
84094.07444421668,6.849e+24
86492.34151668283,6.899e+24
88890.60858914901,6.954e+24
91366.2391155657,7.014e+24
93996.59654988341,7.08e+24
96626.95398420113,7.151e+24
99334.67487246939,7.224e+24
102119.75921468814,7.304e+24
104982.20701085744,7.39e+24
107922.01826097723,7.48e+24
111016.5564189981,7.573e+24
114111.09457701896,7.673e+24
117282.99618899034,7.777e+24
120609.62470886274,7.886e+24
124013.6166826857,8.002e+24
127494.97211045914,8.124e+24
131053.69099218314,8.249e+24
134767.13678180816,8.38e+24
138557.9460253837,8.517e+24
142503.4821768603,8.659e+24
146449.01832833685,8.808e+24
150626.644841665,8.963e+24
154804.2713549932,9.125e+24
159213.98823017286,9.292e+24
163701.06855930312,9.466e+24
168265.51234238388,9.647e+24
172984.68303336567,9.834e+24
177858.58063224852,1.003e+25
182887.20513903242,1.023e+25
187993.19309976682,1.044e+25
193331.2714223528,1.066e+25
198746.7131988893,1.088e+25
204316.8818833268,1.112e+25
210119.1409296159,1.136e+25
215998.76342985555,1.161e+25
222110.47629194672,1.187e+25
228299.55260798844,1.213e+25
234720.7192858817,1.241e+25
241373.97632562654,1.27e+25
248181.96027327242,1.299e+25
255144.67112881932,1.33e+25
262339.4723462178,1.361e+25
269689.0004715173,1.394e+25
277270.61895866843,1.427e+25
285084.3278076711,1.462e+25
293130.1270185253,1.498e+25
301330.6531372806,1.535e+25
309840.6330718379,1.573e+25
318505.33991429635,1.613e+25
327479.50057255675,1.654e+25
336685.7515926688,1.695e+25
346201.4564285829,1.739e+25
355949.2516263486,1.784e+25
365929.13718596584,1.83e+25
376218.4765613852,1.877e+25
386817.26975260663,1.927e+25
